% Temps (s), Energie cinétique, Energie potentielle
0.0 8.290639471209445 11.69764205783509
0.01 8.916281310546708 11.064233404461199
0.02 9.54623062625589 10.434007884920806
0.03 10.177969936319347 9.808254743372537
0.04 10.808974605320776 9.174746148591
0.05 11.4367229337081 8.549307822476814
0.06 12.058706235323717 7.92076131858486
0.07 12.672438862928965 7.304122833413839
0.08 13.275468141657624 6.71246970015412
0.09 13.865384170701091 6.112596386115582
0.1 14.439829454054543 5.540796613484586
0.11 14.996508321836444 4.9870812385669945
0.12 15.53319610453089 4.453069312166658
0.13 16.04774802348928 3.931540067581211
0.14 16.538107762162333 3.4424817863396955
0.15 17.00231568380863 2.97817399470152
0.16 17.438516662839433 2.5474864925951968
0.17 17.84496749850287 2.1373269556192036
0.18 18.220043881280198 1.7631463253954895
0.19 18.56224688415405 1.4196127278261836
0.2 18.870208952807552 1.1132673280416645
0.21 19.1426993708154 0.8400075312580966
0.22 19.378629177986355 0.6051652115733523
0.23 19.577055522201725 0.40874036898743166
0.24 19.73718542735863 0.248499313039464
0.25 19.858378962359968 0.12792500178588506
0.26 19.94015179848689 0.04701743522669502
0.27 19.98217714493362 0.005776613361893872
0.28 19.98428705476962 0.004202536191481614
0.29 19.946473096110076 0.04229520371545824
0.3 19.868886385812438 0.12160870482270697
0.31 19.75183698556437 0.23966449260362627
0.32 19.595792662776617 0.39457367445372155
0.33 19.40137702123249 0.5913333207552536
0.34 19.16936700896468 0.8236970935303964
0.35 18.900689813318614 1.0944783434043628
0.36 18.596419155610803 1.3983851728423382
0.37 18.257771000189752 1.7394802000651008
0.38 17.88609869504763 2.1112622365053295
0.39 17.4828875634022 2.511932336825409
0.4 17.049748967863 2.9473920411467915
0.41 16.588413870903064 3.409381192127597
0.42 16.100725917370866 3.8961608092748015
0.43 15.588634066686812 4.406021894517669
0.44 15.05418480416857 4.94722460519808
0.45 14.499513962611216 5.498781245710535
0.46 13.926838186805861 6.0684622604994525
0.47 13.338446075107276 6.66621681669591
0.48 12.736689033451755 7.267919058494355
0.49 12.12397187837543 7.883058422550701
0.5 11.502743226586578 8.49709843112295
0.51 10.875485709498083 9.120657858773404
0.52 10.244706051826256 9.752327531654272
0.53 9.612925053904817 10.390728258340042
0.54 8.982667517748304 11.019664533721812
0.55 8.35645215712332 11.651813925359372
0.56 7.736781531950548 12.27025135586801
0.57 7.126132047262606 12.872578231464239
0.58 6.526944056685496 13.472921270118707
0.59 5.941612109993041 14.053405951074074
0.6 5.3724753837085055 14.629028482547502
0.61 4.821808332995597 15.18134467775806
0.62 4.291811602197143 15.70843566167896
0.63 3.7846032303456565 16.2085024889726
0.64 3.3022101867916804 16.69813043623769
0.65 2.846560270776038 17.157985838165274
0.66 2.4194744073180803 17.58656957364066
0.67 2.0226593702080753 17.98250245123836
0.68 1.6577009611848794 18.34452520922203
0.69 1.3260576725573114 18.671498515544524
0.7 1.0290548585952504 18.962402967847854
0.71 0.767879438983656 19.23594260057283
0.72 0.5435751555060636 19.452240792069006
0.73 0.35703840091353395 19.630111512325588
0.74 0.2090146366481233 19.78889842079232
0.75 0.10009541373692343 19.888465048158874
0.76 0.03071600876205581 19.968298244585878
0.77 0.0011536843541226582 19.98828152904454
0.78 0.011526581160696785 19.968298244585878
0.79 0.06179324571793545 19.928361658090846
0.8 0.1517527961120835 19.828695089316646
0.81 0.28104572476882594 19.70942501343284
0.82 0.44915533516229106 19.531194504108733
0.83 0.6554098067021514 19.334110048232354
0.84 0.8989848795468453 19.079394379637353
0.85 1.178907148613561 18.806974090678004
0.86 1.4940579536209913 18.478811481604538
0.87 1.843177849619106 18.134493343985213
0.88 2.224871640140101 17.75571540900982
0.89 2.637613952856538 17.343676973570094
0.9 3.079755335464423 16.899697264246957
0.91 3.5495288474302837 16.4252154373105
0.92 4.045057121259248 15.921790578719984
0.93 4.564359865065142 15.40864641823597
0.94 5.1053617764599135 14.86940755621579
0.95 5.66590083613586 14.30593290284164
0.96 6.243736947996803 13.720201297984904
0.97 6.836560891309444 13.13050701631503
0.98 7.44200354909932 12.522103703133972
0.99 8.057645375911436 11.91269597880608
1.0 8.681026067099598 11.288426967161342
1.01 9.309654391002665 10.651755226827833
1.02 9.941018144715223 10.01940595237498
1.03 10.57259419366608 9.392698370383702
1.04 11.201858554883334 8.759744450414596
1.05 11.826296483649921 8.136110066708406
1.06 12.443412523240065 7.523234375535225
1.07 13.050740477574601 6.910828408977974
1.08 13.645853266941382 6.324417202549249
1.09 14.226372627393852 5.742553330168381
1.1 14.789978615066126 5.178583966826388
1.11 15.334418877421816 4.634128163327126
1.12 15.857517654386347 4.110834952896741
1.13 16.35718447339051 3.6103833511836694
1.14 16.831422503577848 3.1344823562586486
1.15 17.278336535788917 2.69220165086548
1.16 17.696140556432724 2.27679019291773
1.17 18.083164884976803 1.8900169453307176
1.18 18.43786284653291 1.5336808534420587
1.19 18.758816952871957 1.2145329593381864
1.2 19.04474456716741 0.9325732630191019
1.21 19.29450302982843 0.6840989353315493
1.22 19.507094224938687 0.4740420847428203
1.23 19.681668569051602 0.29994914969522457
1.24 19.817528406401735 0.16552295934201783
1.25 19.914130796963722 0.07076351368319991
1.26 19.971089686216935 0.01567081271877092
1.27 19.988177447944672 0.00024485644873079563
1.28 19.96532579390249 0.025190231796978376
1.29 19.90262604672013 0.08972739578388095
1.3 19.800328774946696 0.1939313044651724
1.31 19.65884279169733 0.33780195784085276
1.32 19.478733520903297 0.5181162455143635
1.33 19.26072073769432 0.7368480102866979
1.34 19.005675691943445 0.993997252157856
1.35 18.714617626469657 1.2895639711278375
1.36 18.38870970381263 1.6178565040312471
1.37 18.0292543578575 1.9770459231081776
1.38 17.63768808888612 2.3722142489373876
1.39 17.21557572285555 2.795880867156634
1.4 16.764604157845373 3.246276814850595
1.41 16.28657562266523 3.721663111526243
1.42 15.783400474563248 4.229520371545824
1.43 15.257089564818227 4.760089316452783
1.44 14.709746202724942 5.3013919685408375
1.45 14.143557750087258 5.871837535098241
1.46 13.560786879810028 6.460057681005345
1.47 12.96376253352355 7.052585301581958
1.48 12.354870614376521 7.658729938950234
1.49 11.736544452192334 8.289859928229816
1.5 11.111255079092928 8.90590376202535
1.51 10.481501354452154 9.544024652769714
1.52 9.849799978642217 10.175679334439435
1.53 9.21867543548185 10.798169389028084
1.54 8.59064990357916 11.424022471984001
1.55 7.968233176887028 12.051979321570844
1.56 7.353912634751458 12.664894989307086
1.57 6.750143301536032 13.276716298629609
1.58 6.159338035547402 13.853003440463874
1.59 5.583857886469949 14.441533404734678
1.6 5.026002659844674 14.990331662396125
1.61 4.488001726299419 15.531739252962208
1.62 3.9720051122599562 16.046912224021423
1.63 3.480074907746258 16.53411159508073
1.64 3.0141770255911426 16.9917183153363
1.65 2.5761733450143174 17.43689732155118
1.66 2.1678142709483996 17.850035112475
1.67 1.7907317388523991 18.210728649736993
1.68 1.4464326929677906 18.55576636549136
1.69 1.136293064079918 18.865184963560967
1.7 0.8615522708518594 19.138025006432425
1.71 0.6233082667049896 19.373446986281515
1.72 0.4225131520405291 19.57073132497318
1.73 0.25996936933725423 19.729278374061565
1.74 0.13632649633075633 19.84860841478996
1.75 0.05207865008987851 19.948324954267978
1.76 0.007562512364485189 19.98828152904454
1.77 0.0029559840958456865 19.98828152904454
1.78 0.03827747446671954 19.948324954267978
1.79 0.11338582733227334 19.868531734404034
1.8 0.22798088532587452 19.74914172883105
1.81 0.3816046893854041 19.59051472661655
1.82 0.5736433089063494 19.393130446517237
1.83 0.8033292952078839 19.177162061666294
1.84 1.0697447485069613 18.90404218285343
1.85 1.3718249861439122 18.594303772279353
1.86 1.7083627974001083 18.248906267457468
1.87 2.0780132679039007 17.88783295284642
1.88 2.4792991543452323 17.474255419728966
1.89 2.9106167880195914 17.047050875679076
1.9 3.3702424836088087 16.588694594866173
1.91 3.8563394275873857 16.10068569840493
1.92 4.366965018725695 15.584643237099206
1.93 4.900078631355308 15.059651022738851
1.94 5.453549770371836 14.492548496267185
1.95 6.025166585385086 13.919644371081707
1.96 6.612644709991414 13.341958049540407
1.97 7.213636390843787 12.72861763082168
1.98 7.82573987003633 12.129708751366918
1.99 8.446508983308869 11.499703102923343
2.0 9.07346293571366 10.871751250406883
2.01 9.704096215677431 10.247112455553857
2.02 10.335888607839335 9.613209092212122
2.03 10.966315264649753 8.986136724082936
2.04 11.592856796480962 8.354347121512895
2.05 12.213009339926316 7.7331463110828675
2.06 12.824294564051243 7.124003431485234
2.07 13.424269574608527 6.528417603834677
2.08 14.010536676636967 5.937019321164454
2.09 14.5807529564289 5.373694579901773
2.1 15.13263964457427 4.818794899303586
2.11 15.663991222663062 4.28486792309975
2.12 16.17268423725299 3.782282572333453
2.13 16.65668578587911 3.2947883741215858
2.14 17.114061641192006 2.8409144654415712
2.15 17.54298398075845 2.413709921391684
2.16 17.94173869163334 2.0212949813431
2.17 18.3087322205116 1.6521563951350873
2.18 18.642497942084674 1.3253479921352094
2.19 18.94170202015143 1.0254438160734252
2.2 19.205148738060767 0.7639571171104647
2.21 19.43178527718364 0.5408878952463275
2.22 19.620705924318116 0.35623615048101404
2.23 19.771155691213462 0.20795808102817934
2.24 19.882533331748338 0.09934675626973359
2.25 19.954393744705502 0.030402176205676743
2.26 19.986449752540857 0.0009794257949231825
2.27 19.97857324903812 0.011997965987808987
2.28 19.930795711262874 0.06268325087508368
2.29 19.843308073770014 0.15303528045674722
2.3 19.716459965567243 0.28305405473279965
2.31 19.55075831288403 0.45273957370324097
2.32 19.346865313329804 0.6584589672001674
2.33 19.105595789537272 0.9025958377959173
2.34 18.827913932866615 1.185150185490491
2.35 18.514929450183672 1.5006402240745482
2.36 18.16789312911104 1.84723702578818
2.37 17.788191839474617 2.229812734254093
2.38 17.37734299092127 2.641096612066095
2.39 16.936988468857365 3.0871700938794
2.4 16.468888072941432 3.5595931278183675
2.41 15.974912484353336 4.0566267333899715
2.42 15.457035789944884 4.576561912523477
2.43 14.917327593147602 5.117719649570447
2.44 14.357944743165593 5.678450911304735
2.45 13.781122715505754 6.257136646922485
2.46 13.189166678291524 6.852187788042142
2.47 12.58444228006283 7.449837405760574
2.48 11.96936619587623 8.072472375390308
2.49 11.346396469486663 8.693708165313014
2.5 10.718022690206533 9.32431346220246
2.51 10.086756043698232 9.948772362521721
2.52 9.455119276461021 10.578922926006381
2.53 8.825636614116885 11.213445926075515
2.54 8.20082367378497 11.835666138863525
2.55 7.583177410859109 12.458900756939133
2.56 6.975166140363054 13.065784960723983
2.57 6.37921967276226 13.654040086123764
2.58 5.797719603652122 14.23837251127347
2.59 5.232989796128851 14.800527938066702
2.6 4.687287093877817 15.338527526632081
2.61 4.162792302093393 15.868316928559409
2.62 3.66160147227327 16.370902279325705
2.63 3.18571752571605 16.84460456328253
2.64 2.7370422491973745 17.287864694470624
2.65 2.317368694812449 17.699243516619884
2.66 1.9283740143575632 18.09643565595391
2.67 1.571612756887051 18.440394004505713
2.68 1.2485106562304034 18.768216812793188
2.69 0.9603589332969522 19.059870825653864
2.7 0.7083091359378422 19.29481308674625
2.71 0.49336853698689775 19.511441084887654
2.72 0.31639610887130426 19.68958164694488
2.73 0.17809909087887088 19.828695089316646
2.74 0.07903016280019196 19.908408356054476
2.75 0.01958523624072193 19.968298244585878
2.76 1.8724294761797307e-06 19.98828152904454
2.77 0.020358332847196365 19.968298244585878
2.78 0.08057326646806764 19.908408356054476
2.79 0.1804060348648335 19.78889842079232
2.8 0.3194576738780892 19.64992489639126
2.81 0.4971724880066113 19.471964228867787
2.82 0.712840271147008 19.255556101823206
2.83 0.9655991448079717 19.00136012854796
2.84 1.2544390024565195 18.710155852021696
2.85 1.57820554623174 18.38284274491321
2.86 1.9356048998938455 18.020440209580485
2.87 2.3252087795737677 17.624087578070675
2.88 2.745460201659277 17.19504411212012
2.89 3.194679705007067 16.75298327782377
2.9 3.6710720626148006 16.280580232166333
2.91 4.172733455931246 15.761639470038897
2.92 4.697659083133242 15.233649013449185
2.93 5.243751170964879 14.697508335066006
2.94 5.808827358120559 14.120526600448606
2.95 6.39062941666943 13.538642739786207
2.96 6.986832276667457 12.936820568298588
2.97 7.595053317891907 12.332974583306152
2.98 8.212861891565376 11.71293809027519
2.99 8.837789034017725 11.093995955657945
3.0 9.46733733346638 10.462910940011806
3.01 10.09899091048489 9.822261531654014
3.02 10.730225472274041 9.201850258344384
3.03 11.358518400555527 8.575472482998334
3.04 11.981358832773726 7.945946553311456
3.05 12.596257696317766 7.328308654063982
3.06 13.200757655663905 6.724057906370582
3.07 13.7924429326863 6.134723413768235
3.08 14.368948960890672 5.561864262216199
3.09 14.927971834989927 5.007069520096038
3.1 15.46727751805777 4.471958238211605
3.11 15.984710769465664 3.9492896615790025
3.12 16.478203757924238 3.4590920482903313
3.13 16.945784325208546 2.9936249363234717
3.14 17.385583867542724 2.5617781138884643
3.15 17.79584480314744 2.150419280020728
3.16 18.17492759610742 1.775039352905271
3.17 18.52131730848928 1.4356383325420952
3.18 18.83362965452547 1.1227217852049025
3.19 19.110616532669674 0.8523452980318993
3.2 19.35117101341589 0.615644068164954
3.21 19.554331762948145 0.4144770057862675
3.22 19.71928688494258 0.2552303668443697
3.23 19.845377165168816 0.1327671629862961
3.24 19.93209870592406 0.04997070382261136
3.25 19.979104939771915 0.00647620321541043
3.26 19.986208014538448 0.003642864308668367
3.27 19.95337954403045 0.04047627009631519
3.28 19.88075072147585 0.11697642057835089
3.29 19.76861179523304 0.23314331575477548
3.3 19.61741090886411 0.38897695562558904
3.31 19.42775231020774 0.5810643411197071
3.32 19.200393936608577 0.8156018395111335
3.33 18.93624438595346 1.080491543404414
3.34 18.63635928561939 1.3878313601950028
3.35 18.301937073843504 1.7218355445453366
3.36 17.934314210374996 2.0918186356479516
3.37 17.534959835547745 2.4977806335028454
3.38 17.105469899118777 2.932061029214015
3.39 16.647560782334505 3.3928908598661356
3.4 16.16306243871416 3.8785311449661846
3.41 15.653911080961304 4.3872728864434265
3.42 15.122141443228973 4.92735625335821
3.43 14.569878649661508 5.477833526668095
3.44 13.99932972170834 6.046455162535974
3.45 13.412774758149636 6.643150339811393
3.46 12.812557823081075 7.2438331792518555
3.47 12.201077578272894 7.857973129231751
3.48 11.580777697338284 8.471053700290605
3.49 10.954137100020123 9.10716077167092
3.5 10.323660045623116 9.738370714076614
3.51 9.691866125179953 10.361925144656688
3.52 9.061280192347818 10.99000192393271
3.53 8.43442227327298 11.62131180774605
3.54 7.813797495748454 12.238949706993527
3.55 7.201886077909357 12.856542632607566
3.56 6.60113341647642 13.456515888053746
3.57 6.013940314156283 14.036650774082352
3.58 5.442653385254324 14.611933504769782
3.59 4.889555677842252 15.163929887475877
3.6 4.3568575499562145 15.690721047173847
3.61 3.846687836288743 16.190508038526076
3.62 3.3610853406737635 16.679866143990527
3.63 2.901990688364787 17.139471692399
3.64 2.471238570665872 17.567825562636802
3.65 2.0705504129097037 17.96354856327844
3.66 1.701527495082965 18.32538143258759
3.67 1.3656445525913727 18.652184838517083
3.68 1.064243882738344 18.962402967847854
3.69 0.7985299804690064 19.216339093463223
3.7 0.5695647248173143 19.452240792069006
3.71 0.37826313529256805 19.630111512325588
3.72 0.22538971516445253 19.769015077741305
3.73 0.11155539625961704 19.888465048158874
3.74 0.03721509747975127 19.948324954267978
3.75 0.002665906797978397 19.98828152904454
3.76 0.008045893998788098 19.968298244585878
3.77 0.05333355890637931 19.928361658090846
3.78 0.138347917306347 19.828695089316646
3.79 0.2627492242173292 19.70942501343284
3.8 0.4260403316223384 19.531194504108733
3.81 0.6275686752336193 19.334110048232354
3.82 0.8665288823514061 19.098927927761615
3.83 1.1419659903948627 18.806974090678004
3.84 1.4527792632425187 18.498035211365092
3.85 1.7977265901312962 18.15353717921201
3.86 2.1754294495344118 17.75571540900982
3.87 2.584378418181132 17.343676973570094
3.88 3.0229392032020415 16.918081486183297
3.89 3.489359173294348 16.443339811586963
3.9 3.9817743628054365 15.93963511705504
3.91 4.4982169207448495 15.42620112648885
3.92 5.036622974956083 14.886652446104971
3.93 5.594840880019576 14.322847986085597
3.94 6.170639815926779 13.753341868760058
3.95 6.761718703160887 13.146712515564705
3.96 7.365715398558281 12.553765141075978
3.97 7.980216135199119 11.928131929216885
3.98 8.602765168604053 11.303453157800803
3.99 9.230874590686607 10.680958106141768
4.0 9.862034272241374 10.047729347301637
4.01 10.493721894235884 9.420122292641551
4.02 11.123413027816072 8.78622892344058
4.03 11.748591222744025 8.161635102220995
4.04 12.366758063949852 7.547779985252891
4.05 12.975443156010055 6.93435461633766
4.06 13.572213995649442 6.346924007550953
4.07 14.1546856928141 5.764000756249045
4.08 14.72053050146675 5.198952025704484
4.09 15.26748712201542 4.653396866721125
4.1 15.79336973820105 4.128984312525112
4.11 16.296076752328986 3.6273933787648867
4.12 16.77359918393588 3.158273408348594
4.13 17.224028698327714 2.706893037789327
4.14 17.645565232905156 2.2903022712313637
4.15 18.036524190798154 1.9023297267526091
4.16 18.395343173061832 1.550336089026135
4.17 18.720588222530335 1.2293592671623552
4.18 19.010959554374995 0.9412281889211782
4.19 19.265296750466764 0.6915145877788249
4.2 19.48258339678369 0.4802184637352951
4.21 19.661951145331564 0.3048662669513696
4.22 19.80268318434433 0.16918081486183295
4.23 19.904217102896695 0.07316210746668526
4.24 19.966147138480878 0.016810144765926457
4.25 19.988225798565246 0.00012492675955652838
4.26 19.97036484965491 0.02310645344757549
4.27 19.912635669901373 0.08575472482998335
4.28 19.815268963852272 0.18806974090678008
4.29 19.67865384048114 0.33005150167796565
4.3 19.503336258181502 0.5117000071435402
4.31 19.290016842939938 0.7291924984610738
4.32 19.03954808840714 0.9851024668774311
4.33 18.752930949056385 1.2743778742361458
4.34 18.431310840044564 1.6008414793796477
4.35 18.075973059761104 1.9644932823079377
4.36 17.688337653358523 2.3516013336105615
4.37 17.26995373779055 2.7809496208544378
4.38 16.82249331103813 3.2301862482197143
4.39 16.3477445702623 3.7044332128482065
4.4 15.847604765587702 4.211151140820633
4.41 15.324072618075288 4.740600741961964
4.42 14.779240332183576 5.2808240268474504
4.43 14.215285234640584 5.850190226202285
4.44 13.634461073138953 6.43735099318835
4.45 13.03908900962871 7.028859211406982
4.46 12.431548344199957 7.646362189754139
4.47 11.814267006627448 8.264135009901935
4.48 11.189711853574847 8.879239394465605
4.49 10.560378810234157 9.516420835978103
4.5 9.928782895798554 10.147176044979018
4.51 9.297448172628844 10.783482999174621
4.52 8.668897659280777 11.408916328218421
4.53 8.045643247703438 12.036463418033925
4.54 7.430175664903772 12.648989314280346
4.55 6.82495451919221 13.244155388018795
4.56 6.23239847078955 13.836368193161325
4.57 5.654875566075323 14.407573314416831
4.58 5.09469377410525 14.973026807662357
4.59 4.554091763217817 15.514124579864738
4.6 4.0352299545883685 16.029007720841776
4.61 3.5401818884849225 16.51593725010045
4.62 3.0709259377275586 16.9732941168369
4.63 2.6293374014685145 17.418233263673432
4.64 2.2171810108878214 17.831151183500435
4.65 1.8361038767542646 18.210728649736993
4.66 1.4876289070361615 18.55576636549136
4.67 1.1731487208664846 18.865184963560967
4.68 0.8939200831846522 19.138025006432425
4.69 0.6510588822956686 19.373446986281515
4.7 0.4455356704182703 19.57073132497318
4.71 0.27817178504292106 19.729278374061565
4.72 0.14963606660063813 19.84860841478996
