% Relevé de position 
% Temps (s), Position (m)
0.0 1.53
0.01 1.488
0.02 1.445
0.03 1.401
0.04 1.355
0.05 1.308
0.06 1.259
0.07 1.209
0.08 1.159
0.09 1.106
0.1 1.053
0.11 0.999
0.12 0.944
0.13 0.887
0.14 0.83
0.15 0.772
0.16 0.714
0.17 0.654
0.18 0.594
0.19 0.533
0.2 0.472
0.21 0.41
0.22 0.348
0.23 0.286
0.24 0.223
0.25 0.16
0.26 0.097
0.27 0.034
0.28 -0.029
0.29 -0.092
0.3 -0.156
0.31 -0.219
0.32 -0.281
0.33 -0.344
0.34 -0.406
0.35 -0.468
0.36 -0.529
0.37 -0.59
0.38 -0.65
0.39 -0.709
0.4 -0.768
0.41 -0.826
0.42 -0.883
0.43 -0.939
0.44 -0.995
0.45 -1.049
0.46 -1.102
0.47 -1.155
0.48 -1.206
0.49 -1.256
0.5 -1.304
0.51 -1.351
0.52 -1.397
0.53 -1.442
0.54 -1.485
0.55 -1.527
0.56 -1.567
0.57 -1.605
0.58 -1.642
0.59 -1.677
0.6 -1.711
0.61 -1.743
0.62 -1.773
0.63 -1.801
0.64 -1.828
0.65 -1.853
0.66 -1.876
0.67 -1.897
0.68 -1.916
0.69 -1.933
0.7 -1.948
0.71 -1.962
0.72 -1.973
0.73 -1.982
0.74 -1.99
0.75 -1.995
0.76 -1.999
0.77 -2.0
0.78 -1.999
0.79 -1.997
0.8 -1.992
0.81 -1.986
0.82 -1.977
0.83 -1.967
0.84 -1.954
0.85 -1.94
0.86 -1.923
0.87 -1.905
0.88 -1.885
0.89 -1.863
0.9 -1.839
0.91 -1.813
0.92 -1.785
0.93 -1.756
0.94 -1.725
0.95 -1.692
0.96 -1.657
0.97 -1.621
0.98 -1.583
0.99 -1.544
1.0 -1.503
1.01 -1.46
1.02 -1.416
1.03 -1.371
1.04 -1.324
1.05 -1.276
1.06 -1.227
1.07 -1.176
1.08 -1.125
1.09 -1.072
1.1 -1.018
1.11 -0.963
1.12 -0.907
1.13 -0.85
1.14 -0.792
1.15 -0.734
1.16 -0.675
1.17 -0.615
1.18 -0.554
1.19 -0.493
1.2 -0.432
1.21 -0.37
1.22 -0.308
1.23 -0.245
1.24 -0.182
1.25 -0.119
1.26 -0.056
1.27 0.007
1.28 0.071
1.29 0.134
1.3 0.197
1.31 0.26
1.32 0.322
1.33 0.384
1.34 0.446
1.35 0.508
1.36 0.569
1.37 0.629
1.38 0.689
1.39 0.748
1.4 0.806
1.41 0.863
1.42 0.92
1.43 0.976
1.44 1.03
1.45 1.084
1.46 1.137
1.47 1.188
1.48 1.238
1.49 1.288
1.5 1.335
1.51 1.382
1.52 1.427
1.53 1.47
1.54 1.512
1.55 1.553
1.56 1.592
1.57 1.63
1.58 1.665
1.59 1.7
1.6 1.732
1.61 1.763
1.62 1.792
1.63 1.819
1.64 1.844
1.65 1.868
1.66 1.89
1.67 1.909
1.68 1.927
1.69 1.943
1.7 1.957
1.71 1.969
1.72 1.979
1.73 1.987
1.74 1.993
1.75 1.998
1.76 2.0
1.77 2.0
1.78 1.998
1.79 1.994
1.8 1.988
1.81 1.98
1.82 1.97
1.83 1.959
1.84 1.945
1.85 1.929
1.86 1.911
1.87 1.892
1.88 1.87
1.89 1.847
1.9 1.822
1.91 1.795
1.92 1.766
1.93 1.736
1.94 1.703
1.95 1.669
1.96 1.634
1.97 1.596
1.98 1.558
1.99 1.517
2.0 1.475
2.01 1.432
2.02 1.387
2.03 1.341
2.04 1.293
2.05 1.244
2.06 1.194
2.07 1.143
2.08 1.09
2.09 1.037
2.1 0.982
2.11 0.926
2.12 0.87
2.13 0.812
2.14 0.754
2.15 0.695
2.16 0.636
2.17 0.575
2.18 0.515
2.19 0.453
2.2 0.391
2.21 0.329
2.22 0.267
2.23 0.204
2.24 0.141
2.25 0.078
2.26 0.014
2.27 -0.049
2.28 -0.112
2.29 -0.175
2.3 -0.238
2.31 -0.301
2.32 -0.363
2.33 -0.425
2.34 -0.487
2.35 -0.548
2.36 -0.608
2.37 -0.668
2.38 -0.727
2.39 -0.786
2.4 -0.844
2.41 -0.901
2.42 -0.957
2.43 -1.012
2.44 -1.066
2.45 -1.119
2.46 -1.171
2.47 -1.221
2.48 -1.271
2.49 -1.319
2.5 -1.366
2.51 -1.411
2.52 -1.455
2.53 -1.498
2.54 -1.539
2.55 -1.579
2.56 -1.617
2.57 -1.653
2.58 -1.688
2.59 -1.721
2.6 -1.752
2.61 -1.782
2.62 -1.81
2.63 -1.836
2.64 -1.86
2.65 -1.882
2.66 -1.903
2.67 -1.921
2.68 -1.938
2.69 -1.953
2.7 -1.965
2.71 -1.976
2.72 -1.985
2.73 -1.992
2.74 -1.996
2.75 -1.999
2.76 -2.0
2.77 -1.999
2.78 -1.996
2.79 -1.99
2.8 -1.983
2.81 -1.974
2.82 -1.963
2.83 -1.95
2.84 -1.935
2.85 -1.918
2.86 -1.899
2.87 -1.878
2.88 -1.855
2.89 -1.831
2.9 -1.805
2.91 -1.776
2.92 -1.746
2.93 -1.715
2.94 -1.681
2.95 -1.646
2.96 -1.609
2.97 -1.571
2.98 -1.531
2.99 -1.49
3.0 -1.447
3.01 -1.402
3.02 -1.357
3.03 -1.31
3.04 -1.261
3.05 -1.211
3.06 -1.16
3.07 -1.108
3.08 -1.055
3.09 -1.001
3.1 -0.946
3.11 -0.889
3.12 -0.832
3.13 -0.774
3.14 -0.716
3.15 -0.656
3.16 -0.596
3.17 -0.536
3.18 -0.474
3.19 -0.413
3.2 -0.351
3.21 -0.288
3.22 -0.226
3.23 -0.163
3.24 -0.1
3.25 -0.036
3.26 0.027
3.27 0.09
3.28 0.153
3.29 0.216
3.3 0.279
3.31 0.341
3.32 0.404
3.33 0.465
3.34 0.527
3.35 0.587
3.36 0.647
3.37 0.707
3.38 0.766
3.39 0.824
3.4 0.881
3.41 0.937
3.42 0.993
3.43 1.047
3.44 1.1
3.45 1.153
3.46 1.204
3.47 1.254
3.48 1.302
3.49 1.35
3.5 1.396
3.51 1.44
3.52 1.483
3.53 1.525
3.54 1.565
3.55 1.604
3.56 1.641
3.57 1.676
3.58 1.71
3.59 1.742
3.6 1.772
3.61 1.8
3.62 1.827
3.63 1.852
3.64 1.875
3.65 1.896
3.66 1.915
3.67 1.932
3.68 1.948
3.69 1.961
3.7 1.973
3.71 1.982
3.72 1.989
3.73 1.995
3.74 1.998
3.75 2.0
3.76 1.999
3.77 1.997
3.78 1.992
3.79 1.986
3.8 1.977
3.81 1.967
3.82 1.955
3.83 1.94
3.84 1.924
3.85 1.906
3.86 1.885
3.87 1.863
3.88 1.84
3.89 1.814
3.9 1.786
3.91 1.757
3.92 1.726
3.93 1.693
3.94 1.659
3.95 1.622
3.96 1.585
3.97 1.545
3.98 1.504
3.99 1.462
4.0 1.418
4.01 1.373
4.02 1.326
4.03 1.278
4.04 1.229
4.05 1.178
4.06 1.127
4.07 1.074
4.08 1.02
4.09 0.965
4.1 0.909
4.11 0.852
4.12 0.795
4.13 0.736
4.14 0.677
4.15 0.617
4.16 0.557
4.17 0.496
4.18 0.434
4.19 0.372
4.2 0.31
4.21 0.247
4.22 0.184
4.23 0.121
4.24 0.058
4.25 -0.005
4.26 -0.068
4.27 -0.131
4.28 -0.194
4.29 -0.257
4.3 -0.32
4.31 -0.382
4.32 -0.444
4.33 -0.505
4.34 -0.566
4.35 -0.627
4.36 -0.686
4.37 -0.746
4.38 -0.804
4.39 -0.861
4.4 -0.918
4.41 -0.974
4.42 -1.028
4.43 -1.082
4.44 -1.135
4.45 -1.186
4.46 -1.237
4.47 -1.286
4.48 -1.333
4.49 -1.38
4.5 -1.425
4.51 -1.469
4.52 -1.511
4.53 -1.552
4.54 -1.591
4.55 -1.628
4.56 -1.664
4.57 -1.698
4.58 -1.731
4.59 -1.762
4.6 -1.791
4.61 -1.818
4.62 -1.843
4.63 -1.867
4.64 -1.889
4.65 -1.909
4.66 -1.927
4.67 -1.943
4.68 -1.957
4.69 -1.969
4.7 -1.979
4.71 -1.987
4.72 -1.993
4.73 -1.997
4.74 -2.0
4.75 -2.0
4.76 -1.998
4.77 -1.994
4.78 -1.988
4.79 -1.981
4.8 -1.971
4.81 -1.959
4.82 -1.945
4.83 -1.93
4.84 -1.912
4.85 -1.893
4.86 -1.871
4.87 -1.848
4.88 -1.823
4.89 -1.796
4.9 -1.767
4.91 -1.737
4.92 -1.705
4.93 -1.671
4.94 -1.635
4.95 -1.598
4.96 -1.559
4.97 -1.519
4.98 -1.477
4.99 -1.433
5.0 -1.388
5.01 -1.342
5.02 -1.295
5.03 -1.246
5.04 -1.196
5.05 -1.145
5.06 -1.092
5.07 -1.039
5.08 -0.984
5.09 -0.928
5.1 -0.872
5.11 -0.815
5.12 -0.756
5.13 -0.698
5.14 -0.638
5.15 -0.578
5.16 -0.517
5.17 -0.456
5.18 -0.394
5.19 -0.332
5.2 -0.269
5.21 -0.206
5.22 -0.143
5.23 -0.08
5.24 -0.017
5.25 0.046
5.26 0.11
5.27 0.173
5.28 0.236
5.29 0.298
5.3 0.361
5.31 0.423
5.32 0.484
5.33 0.545
5.34 0.606
5.35 0.666
5.36 0.725
5.37 0.784
5.38 0.842
5.39 0.898
5.4 0.955
5.41 1.01
5.42 1.064
5.43 1.117
5.44 1.169
5.45 1.219
5.46 1.269
5.47 1.317
5.48 1.364
5.49 1.41
5.5 1.454
5.51 1.496
5.52 1.538
5.53 1.577
5.54 1.615
5.55 1.652
5.56 1.687
5.57 1.72
5.58 1.751
5.59 1.781
5.6 1.809
5.61 1.835
5.62 1.859
5.63 1.882
5.64 1.902
5.65 1.921
5.66 1.937
5.67 1.952
5.68 1.965
5.69 1.976
5.7 1.985
5.71 1.991
5.72 1.996
5.73 1.999
5.74 2.0
5.75 1.999
5.76 1.996
5.77 1.991
5.78 1.984
5.79 1.974
5.8 1.963
5.81 1.95
5.82 1.935
5.83 1.918
5.84 1.9
5.85 1.879
5.86 1.856
5.87 1.832
5.88 1.806
5.89 1.777
5.9 1.748
5.91 1.716
5.92 1.683
5.93 1.648
5.94 1.611
5.95 1.573
5.96 1.533
5.97 1.491
5.98 1.448
5.99 1.404
6.0 1.358
6.01 1.311
6.02 1.263
6.03 1.213
6.04 1.162
6.05 1.11
6.06 1.057
6.07 1.003
6.08 0.948
6.09 0.892
6.1 0.835
6.11 0.777
6.12 0.718
6.13 0.659
6.14 0.599
6.15 0.538
6.16 0.477
6.17 0.415
6.18 0.353
6.19 0.291
6.2 0.228
6.21 0.165
6.22 0.102
6.23 0.039
6.24 -0.025
6.25 -0.088
6.26 -0.151
6.27 -0.214
6.28 -0.277
6.29 -0.339
6.3 -0.401
6.31 -0.463
6.32 -0.524
6.33 -0.585
6.34 -0.645
6.35 -0.705
6.36 -0.764
6.37 -0.822
6.38 -0.879
6.39 -0.935
6.4 -0.991
6.41 -1.045
6.42 -1.099
6.43 -1.151
6.44 -1.202
6.45 -1.252
6.46 -1.301
6.47 -1.348
6.48 -1.394
6.49 -1.439
6.5 -1.482
6.51 -1.524
6.52 -1.564
6.53 -1.602
6.54 -1.639
6.55 -1.675
6.56 -1.709
6.57 -1.741
6.58 -1.771
6.59 -1.799
6.6 -1.826
6.61 -1.851
6.62 -1.874
6.63 -1.895
6.64 -1.914
6.65 -1.932
6.66 -1.947
6.67 -1.961
6.68 -1.972
6.69 -1.982
6.7 -1.989
6.71 -1.995
6.72 -1.998
6.73 -2.0
6.74 -1.999
6.75 -1.997
6.76 -1.993
6.77 -1.986
6.78 -1.978
6.79 -1.967
6.8 -1.955
6.81 -1.941
6.82 -1.925
6.83 -1.906
6.84 -1.886
6.85 -1.864
6.86 -1.841
6.87 -1.815
6.88 -1.787
6.89 -1.758
6.9 -1.727
6.91 -1.694
6.92 -1.66
6.93 -1.624
6.94 -1.586
6.95 -1.547
6.96 -1.506
6.97 -1.463
6.98 -1.42
6.99 -1.374
7.0 -1.328
7.01 -1.28
7.02 -1.231
7.03 -1.18
7.04 -1.128
7.05 -1.076
7.06 -1.022
7.07 -0.967
7.08 -0.911
7.09 -0.854
7.1 -0.797
7.11 -0.738
7.12 -0.679
7.13 -0.619
7.14 -0.559
7.15 -0.498
7.16 -0.437
7.17 -0.375
7.18 -0.312
7.19 -0.25
7.2 -0.187
7.21 -0.124
7.22 -0.061
7.23 0.003
7.24 0.066
7.25 0.129
7.26 0.192
7.27 0.255
7.28 0.318
7.29 0.38
7.3 0.442
7.31 0.503
7.32 0.564
7.33 0.624
7.34 0.684
7.35 0.743
7.36 0.802
7.37 0.859
7.38 0.916
7.39 0.972
7.4 1.026
7.41 1.08
7.42 1.133
7.43 1.184
7.44 1.235
7.45 1.284
7.46 1.332
7.47 1.378
7.48 1.423
7.49 1.467
7.5 1.509
7.51 1.55
7.52 1.589
7.53 1.627
7.54 1.663
7.55 1.697
7.56 1.73
7.57 1.761
7.58 1.79
7.59 1.817
7.6 1.843
7.61 1.866
7.62 1.888
7.63 1.908
7.64 1.926
7.65 1.942
7.66 1.956
7.67 1.968
7.68 1.979
7.69 1.987
7.7 1.993
7.71 1.997
7.72 2.0
7.73 2.0
7.74 1.998
7.75 1.994
7.76 1.989
7.77 1.981
7.78 1.971
7.79 1.96
7.8 1.946
7.81 1.93
7.82 1.913
7.83 1.893
7.84 1.872
7.85 1.849
7.86 1.824
7.87 1.797
7.88 1.768
7.89 1.738
7.9 1.706
7.91 1.672
7.92 1.636
7.93 1.599
7.94 1.56
7.95 1.52
7.96 1.478
7.97 1.435
7.98 1.39
7.99 1.344
8.0 1.297
8.01 1.248
8.02 1.198
8.03 1.146
8.04 1.094
8.05 1.041
8.06 0.986
8.07 0.931
8.08 0.874
8.09 0.817
8.1 0.759
8.11 0.7
8.12 0.64
8.13 0.58
8.14 0.519
8.15 0.458
8.16 0.396
8.17 0.334
8.18 0.271
8.19 0.209
8.2 0.146
8.21 0.082
8.22 0.019
8.23 -0.044
8.24 -0.107
8.25 -0.17
8.26 -0.233
8.27 -0.296
8.28 -0.358
8.29 -0.42
8.3 -0.482
8.31 -0.543
8.32 -0.604
8.33 -0.664
8.34 -0.723
8.35 -0.782
8.36 -0.839
8.37 -0.896
8.38 -0.952
8.39 -1.008
8.4 -1.062
8.41 -1.115
8.42 -1.167
8.43 -1.217
8.44 -1.267
8.45 -1.315
8.46 -1.362
8.47 -1.408
8.48 -1.452
8.49 -1.495
8.5 -1.536
8.51 -1.576
8.52 -1.614
8.53 -1.651
8.54 -1.685
8.55 -1.719
8.56 -1.75
8.57 -1.78
8.58 -1.808
8.59 -1.834
8.6 -1.858
8.61 -1.881
8.62 -1.901
8.63 -1.92
8.64 -1.937
8.65 -1.952
8.66 -1.964
8.67 -1.975
8.68 -1.984
8.69 -1.991
8.7 -1.996
8.71 -1.999
8.72 -2.0
8.73 -1.999
8.74 -1.996
8.75 -1.991
8.76 -1.984
8.77 -1.975
8.78 -1.964
8.79 -1.951
8.8 -1.936
8.81 -1.919
8.82 -1.9
8.83 -1.88
8.84 -1.857
8.85 -1.833
8.86 -1.807
8.87 -1.779
8.88 -1.749
8.89 -1.717
8.9 -1.684
8.91 -1.649
8.92 -1.612
8.93 -1.574
8.94 -1.534
8.95 -1.493
8.96 -1.45
8.97 -1.406
8.98 -1.36
8.99 -1.313
9.0 -1.265
9.01 -1.215
9.02 -1.164
9.03 -1.112
9.04 -1.059
9.05 -1.005
9.06 -0.95
9.07 -0.894
9.08 -0.837
9.09 -0.779
9.1 -0.72
9.11 -0.661
9.12 -0.601
9.13 -0.54
9.14 -0.479
9.15 -0.417
9.16 -0.355
9.17 -0.293
9.18 -0.23
9.19 -0.167
9.2 -0.104
9.21 -0.041
9.22 0.022
9.23 0.085
9.24 0.148
9.25 0.211
9.26 0.274
9.27 0.337
9.28 0.399
9.29 0.461
9.3 0.522
9.31 0.583
9.32 0.643
9.33 0.703
9.34 0.761
9.35 0.819
9.36 0.877
9.37 0.933
9.38 0.989
9.39 1.043
9.4 1.097
9.41 1.149
9.42 1.2
9.43 1.25
9.44 1.299
9.45 1.346
9.46 1.392
9.47 1.437
9.48 1.48
9.49 1.522
9.5 1.562
9.51 1.601
9.52 1.638
9.53 1.674
9.54 1.707
9.55 1.739
9.56 1.77
9.57 1.798
9.58 1.825
9.59 1.85
9.6 1.873
9.61 1.894
9.62 1.914
9.63 1.931
9.64 1.947
9.65 1.96
9.66 1.972
9.67 1.981
9.68 1.989
9.69 1.995
9.7 1.998
9.71 2.0
9.72 2.0
9.73 1.997
9.74 1.993
9.75 1.986
9.76 1.978
9.77 1.968
9.78 1.956
9.79 1.941
9.8 1.925
9.81 1.907
9.82 1.887
9.83 1.865
9.84 1.841
9.85 1.816
9.86 1.788
9.87 1.759
9.88 1.728
9.89 1.696
9.9 1.661
9.91 1.625
9.92 1.587
9.93 1.548
9.94 1.507
9.95 1.465
9.96 1.421
9.97 1.376
9.98 1.33
9.99 1.282
10.0 1.232