% Temps (s), Vitesse (m/s)
0.0 -4.07201165794241
0.01 -4.222861899363205
0.02 -4.369492104640055
0.03 -4.511755741686233
0.04 -4.649510642061329
0.05 -4.782619143044552
0.06 -4.910948225205336
0.07 -5.034369645333756
0.08 -5.152760064597929
0.09 -5.266001171800305
0.1 -5.373979801609705
0.11 -5.4765880476509174
0.12 -5.573723370338878
0.13 -5.665288699349625
0.14 -5.751192530625684
0.15 -5.831349017818884
0.16 -5.905678058079264
0.17 -5.974105372104324
0.18 -6.03656257836862
0.19 -6.0929872614595295
0.2 -6.1433230344509075
0.21 -6.187519595252269
0.22 -6.2255327768772295
0.23 -6.25732459158093
0.24 -6.282863268822365
0.25 -6.302123287013666
0.26 -6.315085399024607
0.27 -6.321736651416859
0.28 -6.3220703973887575
0.29 -6.316086303417659
0.3 -6.303790349593241
0.31 -6.285194823641407
0.32 -6.260318308644796
0.33 -6.229185664472121
0.34 -6.191828002934946
0.35 -6.148282656696684
0.36 -6.098593141964924
0.37 -6.042809115004338
0.38 -5.980986322513642
0.39 -5.913186545916203
0.4 -5.839477539619962
0.41 -5.759932963308351
0.42 -5.674632308329918
0.43 -5.583660818260151
0.44 -5.4871094037149595
0.45 -5.385074551500883
0.46 -5.277658228192853
0.47 -5.164967778235848
0.48 -5.047115816672282
0.49 -4.924220116602309
0.5 -4.796403491489551
0.51 -4.663793672429792
0.52 -4.526523180505377
0.53 -4.384729194352786
0.54 -4.238553413075811
0.55 -4.088141914641252
0.56 -3.9336450098987195
0.57 -3.7752170923703465
0.58 -3.6130164839605965
0.59 -3.4472052767402874
0.6 -3.277949170962999
0.61 -3.105417309475684
0.62 -2.929782108689021
0.63 -2.751219086276357
0.64 -2.569906685773505
0.65 -2.386026098254601
0.66 -2.199761081262272
0.67 -2.0112977751730723
0.68 -1.8208245171816417
0.69 -1.6285316530895624
0.7 -1.4346113470869037
0.71 -1.2392573897166448
0.72 -1.0426650042137826
0.73 -0.8450306514127567
0.74 -0.6465518334180537
0.75 -0.4474268962342864
0.76 -0.2478548315528903
0.77 -0.048035077893611416
0.78 0.15183267870058004
0.79 0.3515487042158894
0.8 0.5509134162680802
0.81 0.7497275835512869
0.82 0.9477925249360126
0.83 1.1449103080173149
0.84 1.3408839469147547
0.85 1.5355175991264711
0.86 1.7286167612406118
0.87 1.9199884633086242
0.88 2.1094414616860555
0.89 2.2967864301482357
0.9 2.4818361490897916
0.91 2.6644056926190065
0.92 2.8443126133599477
0.93 3.021377124777753
0.94 3.1954222808448693
0.95 3.3662741528686757
0.96 3.5337620033037886
0.97 3.6977184563753482
0.98 3.8579796653428127
0.99 4.014385476237038
1.0 4.166779587907092
1.01 4.315009708216811
1.02 4.458927706235037
1.03 4.598389760267409
1.04 4.73325650158183
1.05 4.863393153683942
1.06 4.988669667003432
1.07 5.108960848856566
1.08 5.224146488555117
1.09 5.334111477536601
1.1 5.43874592439583
1.11 5.537945264702752
1.12 5.63161036549695
1.13 5.719647624354233
1.14 5.801969062926456
1.15 5.878492414860959
1.16 5.9491412080119135
1.17 6.013844840861261
1.18 6.072538653073014
1.19 6.125163990110298
1.2 6.171668261850666
1.21 6.21200499514101
1.22 6.24613388023963
1.23 6.274020811098988
1.24 6.295637919448947
1.25 6.310963602646385
1.26 6.319982545263386
1.27 6.322685734392414
1.28 6.319070468653201
1.29 6.309140360892303
1.3 6.292905334572688
1.31 6.2703816138569
1.32 6.241591707393764
1.33 6.206564385824789
1.34 6.165334653032785
1.35 6.1179437111613995
1.36 6.0644389194405495
1.37 6.0048737468588795
1.38 5.939307718730546
1.39 5.867806357209745
1.4 5.790441115812399
1.41 5.707289308010455
1.42 5.618434029970139
1.43 5.523964077511407
1.44 5.423973857371538
1.45 5.318563292861571
1.46 5.207837724009846
1.47 5.091907802292487
1.48 4.970889380055952
1.49 4.844903394742218
1.5 4.714075748032254
1.51 4.578537180028607
1.52 4.438423138602767
1.53 4.293873644037945
1.54 4.145033149102468
1.55 3.9920503946936914
1.56 3.835078261196623
1.57 3.6742736157058395
1.58 3.509797155263364
1.59 3.3418132462691417
1.6 3.1704897602246485
1.61 2.995997905973707
1.62 2.818512058608214
1.63 2.638209585209734
1.64 2.4552706676010865
1.65 2.2698781222851228
1.66 2.08221721775054
1.67 1.8924754893273514
1.68 1.7008425517770835
1.69 1.507509909804853
1.7 1.3126707666828414
1.71 1.1165198311763116
1.72 0.9192531229650831
1.73 0.7210677767550763
1.74 0.5221618452754976
1.75 0.3227341013586216
1.76 0.12298383930000875
1.77 -0.0768893243024763
1.78 -0.2766856500316543
1.79 -0.4762054752567915
1.8 -0.6752494136626473
1.81 -0.8736185545023687
1.82 -1.0711146613751017
1.83 -1.2675403703297847
1.84 -1.4626993870969942
1.85 -1.6563966832518786
1.86 -1.848438691112101
1.87 -2.0386334971759394
1.88 -2.2267910339074173
1.89 -2.4127232696766496
1.9 -2.5962443966656177
1.91 -2.7771710165516943
1.92 -2.95532232378321
1.93 -3.1305202862640287
1.94 -3.3025898232665334
1.95 -3.4713589803951668
1.96 -3.6366591014257614
1.97 -3.7983249968489496
1.98 -3.9561951089490845
1.99 -4.110111673253871
2.0 -4.25992087619328
2.01 -4.405473008810162
2.02 -4.5466226163690635
2.03 -4.683228643713598
2.04 -4.8151545762272185
2.05 -4.942268576256518
2.06 -5.064443614860618
2.07 -5.181557598755132
2.08 -5.293493492323754
2.09 -5.400139434575537
2.1 -5.501388850931058
2.11 -5.5971405597256645
2.12 -5.687298873323432
2.13 -5.7717736937407915
2.14 -5.850480602684194
2.15 -5.923340945911935
2.16 -5.990281911835759
2.17 -6.051236604283723
2.18 -6.106144109351608
2.19 -6.154949556276059
2.2 -6.197604172268631
2.21 -6.234065331255944
2.22 -6.264296596477232
2.23 -6.288267756896722
2.24 -6.305954857394451
2.25 -6.31734022270536
2.26 -6.322412475082729
2.27 -6.32116654566831
2.28 -6.313603679557796
2.29 -6.299731434556558
2.3 -6.279563673626893
2.31 -6.253120551034344
2.32 -6.220428492206916
2.33 -6.181520167327333
2.34 -6.13643445868472
2.35 -6.085216421818319
2.36 -6.0279172404921155
2.37 -5.964594175545327
2.38 -5.8953105076698495
2.39 -5.820135474171948
2.4 -5.739144199781259
2.41 -5.652417621576335
2.42 -5.560042408101737
2.43 -5.462110872757455
2.44 -5.358720881547311
2.45 -5.249975755278448
2.46 -5.135984166309613
2.47 -5.0168600299515695
2.48 -4.892722390627989
2.49 -4.763695302910685
2.5 -4.629907707548075
2.51 -4.491493302610666
2.52 -4.348590409882499
2.53 -4.201341836631931
2.54 -4.049894732899849
2.55 -3.8944004444481846
2.56 -3.7350143615153755
2.57 -3.5718957635301343
2.58 -3.40520765993856
2.59 -3.235116627303829
2.6 -3.0617926428410587
2.61 -2.885408914553843
2.62 -2.706141708142155
2.63 -2.524170170854592
2.64 -2.3396761524610086
2.65 -2.1528440235244397
2.66 -1.9638604911538717
2.67 -1.7729144124221288
2.68 -1.5801966056351364
2.69 -1.385899659641312
2.7 -1.190217741371588
2.71 -0.9933464018024103
2.72 -0.7954823805356147
2.73 -0.5968234091904755
2.74 -0.3975680138044105
2.75 -0.19791531643974364
2.76 0.0019351638050458316
2.77 0.2017837101809577
2.78 0.40143060787156637
2.79 0.6006763435741972
2.8 0.7993218048797233
2.81 0.9971684792517373
2.82 1.194018652406241
2.83 1.3896756058936717
2.84 1.5839438136856494
2.85 1.7766291375702132
2.86 1.9675390211601118
2.87 2.1564826823203416
2.88 2.3432713038226183
2.89 2.5277182220362566
2.9 2.709639113466884
2.91 2.888852178956634
2.92 3.0651783253615905
2.93 3.238441344525134
2.94 3.408468089368172
2.95 3.5750886469203613
2.96 3.738136508119375
2.97 3.897448734208548
2.98 4.05286611956659
2.99 4.204233350806714
3.0 4.351399161986034
3.01 4.494216485770326
3.02 4.632542600402945
3.03 4.766239272331075
3.04 4.895172894346782
3.05 5.019214619104819
3.06 5.138240487883747
3.07 5.252131554461731
3.08 5.360774003983132
3.09 5.4640592666972285
3.1 5.561884126455309
3.11 5.654150823857755
3.12 5.740767153948022
3.13 5.8216465583559
3.14 5.896708211797956
3.15 5.96587710284874
3.16 6.029084108902018
3.17 6.086266065247112
3.18 6.137365828191354
3.19 6.182332332165536
3.2 6.221120640755312
3.21 6.253691991607541
3.22 6.2800138351667
3.23 6.300059867202663
3.24 6.313810055097328
3.25 6.321250657863824
3.26 6.3223742398783145
3.27 6.317179678310638
3.28 6.305672164246386
3.29 6.287863197499297
3.3 6.263770575119128
3.31 6.23341837360653
3.32 6.196836924852643
3.33 6.1540627858275
3.34 6.105138702047545
3.35 6.05011356485868
3.36 5.989042362577676
3.37 5.92198612554061
3.38 5.849011865113419
3.39 5.770192506725318
3.4 5.6856068169922125
3.41 5.595339325002784
3.42 5.4994802378459315
3.43 5.3981253504640865
3.44 5.291375949922353
3.45 5.179338714189223
3.46 5.062125605529968
3.47 4.939853758619357
3.48 4.812645363485301
3.49 4.680627543400591
3.5 4.543932227844759
3.51 4.402696020662783
3.52 4.257060063552737
3.53 4.107169895018462
3.54 3.9531753049285467
3.55 3.7952301848265693
3.56 3.633492374142657
3.57 3.468123502459589
3.58 3.2992888279913672
3.59 3.127157072435682
3.6 2.9519002523649793
3.61 2.7736935073251128
3.62 2.5927149248128933
3.63 2.4091453623078816
3.64 2.223168266535789
3.65 2.0349694901446083
3.66 1.8447371059763313
3.67 1.652661219119861
3.68 1.4589337769332398
3.69 1.2637483772246803
3.7 1.0673000747843264
3.71 0.8697851864599305
3.72 0.671401094971482
3.73 0.4723460516604686
3.74 0.27281897837119495
3.75 0.07301926866216063
3.76 -0.1268534114542301
3.77 -0.3265993230439381
3.78 -0.5260188538566788
3.79 -0.7249127178044668
3.8 -0.9230821541145061
3.81 -1.1203291259568495
3.82 -1.3164565183487118
3.83 -1.5112683351376504
3.84 -1.704569894866455
3.85 -1.8961680253243889
3.86 -2.0858712565901145
3.87 -2.2734900123735455
3.88 -2.4588367994651623
3.89 -2.6417263951039094
3.9 -2.8219760320759057
3.91 -2.999405581359363
3.92 -3.173837732133161
3.93 -3.3450981689689097
3.94 -3.513015746029835
3.95 -3.677422658101972
3.96 -3.838154608287238
3.97 -3.995050972190247
3.98 -4.147954958435314
3.99 -4.296713765352914
4.0 -4.441178733679016
4.01 -4.581205495114989
4.02 -4.716654116599196
4.03 -4.847389240146499
4.04 -4.973280218115575
4.05 -5.094201243769244
4.06 -5.210031476996937
4.07 -5.320655165073959
4.08 -5.425961758336811
4.09 -5.525846020658813
4.1 -5.620208134615844
4.11 -5.708953801236963
4.12 -5.791994334240302
4.13 -5.869246748659953
4.14 -5.940633843775453
4.15 -6.0060842802608345
4.16 -6.065532651476181
4.17 -6.118919548830551
4.18 -6.166191621150772
4.19 -6.207301627996945
4.2 -6.2422084868712435
4.21 -6.27087731427295
4.22 -6.293279460558593
4.23 -6.309392538572425
4.24 -6.319200446018606
4.25 -6.322693381552714
4.26 -6.319867854576535
4.27 -6.3107266887263265
4.28 -6.2952790190510655
4.29 -6.273540282883523
4.3 -6.245532204413248
4.31 -6.211282772976921
4.32 -6.170826215087756
4.33 -6.124202960231868
4.34 -6.071459600465865
4.35 -6.012648843855943
4.36 -5.947829461805125
4.37 -5.877066230321137
4.38 -5.800429865283801
4.39 -5.717996951776435
4.4 -5.629849867552012
4.41 -5.536076700710583
4.42 -5.4367711616700545
4.43 -5.33203248951853
4.44 -5.221965352841582
4.45 -5.106679745123775
4.46 -4.986290874828695
4.47 -4.860919050267644
4.48 -4.730689559371836
4.49 -4.595732544488236
4.5 -4.456182872324374
4.51 -4.312179999171844
4.52 -4.163867831543354
4.53 -4.011394582362458
4.54 -3.8549126228499064
4.55 -3.6945783302542687
4.56 -3.5305519315794096
4.57 -3.3629973434647025
4.58 -3.1920820083779957
4.59 -3.0179767272852907
4.6 -2.8408554889639737
4.61 -2.6608952961305796
4.62 -2.478275988556383
4.63 -2.2931800633480637
4.64 -2.105792492572723
4.65 -1.9163005384094973
4.66 -1.724893566012791
4.67 -1.5317628542737838
4.68 -1.3371014046695577
4.69 -1.1411037483907136
4.7 -0.9439657519404719
4.71 -0.7458844213990812
4.72 -0.5470577055496763
4.73 -0.34768429806195417
4.74 -0.14796343893136107
4.75 0.05190528462745778
4.76 0.25172213763442935
4.77 0.45128743694524437
4.78 0.6504017508010506
4.79 0.8488660981265925
4.8 1.0464821473782497
4.81 1.2430524147428639
4.82 1.438380461489295
4.83 1.6322710902758586
4.84 1.8245305402169176
4.85 2.0149666805142203
4.86 2.203389202459005
4.87 2.3896098096135208
4.88 2.5734424059813183
4.89 2.754703281978784
4.9 2.9332112980218303
4.91 3.108788065544231
4.92 3.2812581252667554
4.93 3.450449122539161
4.94 3.6161919795794453
4.95 3.7783210644384377
4.96 3.936674356521045
4.97 4.091093608498298
4.98 4.241424504448846
4.99 4.387516814071649
5.0 4.529224542815701
5.01 4.6664060777769185
5.02 4.798924329216223
5.03 4.926646867557652
5.04 5.049446055729213
5.05 5.167199176714595
5.06 5.279788556188091
5.07 5.387101680110139
5.08 5.489031307166103
5.09 5.585475575935774
5.1 5.676338106686711
5.11 5.761528097689396
5.12 5.840960415958279
5.13 5.914555682327723
5.14 5.9822403507781186
5.15 6.043946781932656
5.16 6.099613310651427
5.17 6.149184307655342
5.18 6.19261023511814
5.19 6.2298476961711104
5.2 6.26085947827088
5.21 6.285614590387089
5.22 6.3040882939726615
5.23 6.316262127685813
5.24 6.32212392583903
5.25 6.321667830556619
5.26 6.314894297628662
5.27 6.301810096055536
5.28 6.282428301283433
5.29 6.256768282137675
5.3 6.224855681466838
5.31 6.186722390517065
5.32 6.1424065170621756
5.33 6.09195234732136
5.34 6.035410301702636
5.35 5.972836884416134
5.36 5.9042946270077445
5.37 5.829852025869367
5.38 5.749583473788406
5.39 5.663569185604713
5.4 5.571895118049443
5.41 5.474652883845874
5.42 5.371939660157916
5.43 5.263858091478062
5.44 5.150516187051486
5.45 5.032027212939167
5.46 4.908509578827528
5.47 4.7800867196980805
5.48 4.646886972474954
5.49 4.50904344777388
5.5 4.366693896880704
5.51 4.219980574092159
5.52 4.069050094556899
5.53 3.914053287758314
5.54 3.7551450467861214
5.55 3.592484173546795
5.56 3.4262332200679775
5.57 3.2565583260552824
5.58 3.083629052863629
5.59 2.9076182140495033
5.6 2.7287017026728857
5.61 2.5470583155220496
5.62 2.3628695744362553
5.63 2.1763195449055397
5.64 1.9875946521282513
5.65 1.79688349471066
5.66 1.6043766561946193
5.67 1.4102665146014026
5.68 1.2147470501825874
5.69 1.0180136515694314
5.7 0.8202629205151628
5.71 0.6216924754246299
5.72 0.4225007538682005
5.73 0.2228868142770438
5.74 0.023050137017744325
5.75 -0.17680957495440183
5.76 -0.37649259566488935
5.77 -0.5757993757121507
5.78 -0.7745307416836075
5.79 -0.9724880951956253
5.8 -1.169473611359161
5.81 -1.3652904364722085
5.82 -1.5597428847417083
5.83 -1.752636633838551
5.84 -1.9437789190897
5.85 -2.132978726114045
5.86 -2.320046981708798
5.87 -2.504796742796341
5.88 -2.687043383242046
5.89 -2.8666047783570097
5.9 -3.0433014869008073
5.91 -3.216956930402604
5.92 -3.3873975696216028
5.93 -3.5544530779700048
5.94 -3.717956511725776
5.95 -3.8777444768645055
5.96 -4.033657292344228
5.97 -4.18553914967955
5.98 -4.3332382686458315
5.99 -4.476607048957964
6.0 -4.615502217771751
6.01 -4.749784972861012
6.02 -4.8793211213268055
6.03 -5.003981213700646
6.04 -5.123640673307242
6.05 -5.238179920757904
6.06 -5.3474844934498735
6.07 -5.451445159952297
6.08 -5.54995802916465
6.09 -5.642924654138223
6.1 -5.730252130457282
6.11 -5.811853189081238
6.12 -5.887646283555351
6.13 -5.957555671502597
6.14 -6.021511490315333
6.15 -6.079449826971211
6.16 -6.131312781903377
6.17 -6.177048526861341
6.18 -6.216611356704506
6.19 -6.249961735076762
6.2 -6.277066333916351
6.21 -6.297898066761656
6.22 -6.312436115819521
6.23 -6.320665952769114
6.24 -6.322579353280539
6.25 -6.318174405233646
6.26 -6.307455510628882
6.27 -6.290433381188237
6.28 -6.267125027650677
6.29 -6.237553742772813
6.3 -6.201749078051701
6.31 -6.1597468141931335
6.32 -6.111588925354892
6.33 -6.057323537200641
6.34 -5.997004878806509
6.35 -5.930693228468256
6.36 -5.858454853463365
6.37 -5.780361943828057
6.38 -5.696492540215579
6.39 -5.6069304559078095
6.4 -5.511765193057984
6.41 -5.411091853248525
6.42 -5.305011042452999
6.43 -5.193628770497562
6.44 -5.077056345121977
6.45 -4.955410260746452
6.46 -4.82881208205508
6.47 -4.69738832251255
6.48 -4.561270317935356
6.49 -4.420594095243844
6.5 -4.2755002365262875
6.51 -4.126133738550905
6.52 -3.9726438678660965
6.53 -3.8151840116338374
6.54 -3.653911524345041
6.55 -3.488987570570484
6.56 -3.3205769639040272
6.57 -3.148848002259269
6.58 -2.9739722996843065
6.59 -2.796124614862464
6.6 -2.6154826764707124
6.61 -2.4322270055696786
6.62 -2.246540735203524
6.63 -2.058609427389483
6.64 -1.868620887679898
6.65 -1.6767649774824138
6.66 -1.4832334243255587
6.67 -1.2882196302596833
6.68 -1.0919184785840654
6.69 -0.89452613909417
6.7 -0.6962398720431678
6.71 -0.4972578310135466
6.72 -0.2977788648962132
6.73 -0.09800231917459663
6.74 0.10187216328726245
6.75 0.30164484175425277
6.76 0.5011160772270902
6.77 0.7000865319477948
6.78 0.8983573686039708
6.79 1.095730449033222
6.8 1.2920085322285737
6.81 1.48699547144756
6.82 1.6804964102277589
6.83 1.8723179771127973
6.84 2.062268478894457
6.85 2.250158092177544
6.86 2.435799053076308
6.87 2.619005844852744
6.88 2.799595383309046
6.89 2.97738719974944
6.9 3.1522036213280313
6.91 3.3238699486028223
6.92 3.492214630118097
6.93 3.657069433841312
6.94 3.8182696152824254
6.95 3.975654082128105
6.96 4.12906555522636
6.97 4.278350725760373
6.98 4.4233604084547835
6.99 4.5639496906609995
7.0 4.699978077173079
7.01 4.831309630628785
7.02 4.9578131073560385
7.03 5.079362088528702
7.04 5.19583510650091
7.05 5.3071157661933865
7.06 5.413092861410566
7.07 5.513660485972516
7.08 5.608718139550153
7.09 5.6981708280983545
7.1 5.781929158786407
7.11 5.8599094293310445
7.12 5.932033711642744
7.13 5.9982299297016075
7.14 6.058431931585214
7.15 6.112579555576239
7.16 6.160618690283936
7.17 6.202501328719273
7.18 6.238185616269867
7.19 6.267635892526541
7.2 6.290822726919876
7.21 6.307722948131102
7.22 6.3183196672479
7.23 6.322602294642019
7.24 6.320566550551809
7.25 6.312214469359132
7.26 6.297554397556329
7.27 6.276600985405319
7.28 6.249375172297149
7.29 6.215904165826591
7.3 6.176221414602768
7.31 6.1303665748229506
7.32 6.078385470642847
7.33 6.020330048383146
7.34 5.956258324617934
7.35 5.886234328196985
7.36 5.810328036259692
7.37 5.728615304304811
7.38 5.641177790385704
7.39 5.5481028735069025
7.4 5.4494835663036
7.41 5.345418422091227
7.42 5.236011436378178
7.43 5.121371942939748
7.44 5.001614504557603
7.45 4.876858798533684
7.46 4.747229497092914
7.47 4.6128561427944454
7.48 4.473873019075744
7.49 4.330419016059133
7.5 4.182637491754421
7.51 4.030676128796949
7.52 3.874686786863724
7.53 3.714825350915436
7.54 3.5512515754156997
7.55 3.384128924683525
7.56 3.2136244095385122
7.57 3.039908420401569
7.58 2.863154557018652
7.59 2.6835394549771294
7.6 2.501242609188474
7.61 2.316446194513316
7.62 2.1293348837086334
7.63 1.9400956628785049
7.64 1.7489176446130887
7.65 1.5559918790026392
7.66 1.3615111627152188
7.67 1.165669846329104
7.68 0.9686636401122167
7.69 0.7706894184427497
7.7 0.5719450230666829
7.71 0.37262906538826956
7.72 0.1729407279916228
7.73 -0.0269204344086512
7.74 -0.22675469438845483
7.75 -0.42636235140824386
7.76 -0.6255439313797562
7.77 -0.8241003860066881
7.78 -1.021833291699707
7.79 -1.218545047867398
7.8 -1.4140390743845839
7.81 -1.608120008040755
7.82 -1.8005938977728144
7.83 -1.9912683984861808
7.84 -2.1799529632712407
7.85 -2.366459033822666
7.86 -2.550600228871673
7.87 -2.732192530442527
7.88 -2.911054467747243
7.89 -3.087007298535181
7.9 -3.2598751877155303
7.91 -3.4294853830747996
7.92 -3.5956683879133706
7.93 -3.7582581304288216
7.94 -3.917092129676655
7.95 -4.072011657942386
7.96 -4.222861899363175
7.97 -4.369492104640018
7.98 -4.511755741686222
7.99 -4.649510642061311
8.0 -4.782619143044529
8.01 -4.910948225205307
8.02 -5.034369645333736
8.03 -5.152760064597904
8.04 -5.266001171800276
8.05 -5.373979801609696
8.06 -5.476588047650905
8.07 -5.57372337033886
8.08 -5.665288699349604
8.09 -5.75119253062567
8.1 -5.831349017818867
8.11 -5.905678058079245
8.12 -5.974105372104318
8.13 -6.036562578368611
8.14 -6.09298726145952
8.15 -6.143323034450895
8.16 -6.187519595252262
8.17 -6.225532776877221
8.18 -6.257324591580924
8.19 -6.2828632688223625
8.2 -6.302123287013663
8.21 -6.315085399024605
8.22 -6.321736651416859
8.23 -6.3220703973887575
8.24 -6.31608630341766
8.25 -6.3037903495932435
8.26 -6.28519482364141
8.27 -6.2603183086448
8.28 -6.229185664472129
8.29 -6.1918280029349555
8.3 -6.148282656696688
8.31 -6.0985931419649315
8.32 -6.042809115004348
8.33 -5.980986322513656
8.34 -5.913186545916216
8.35 -5.8394775396199785
8.36 -5.7599329633083745
8.37 -5.674632308329926
8.38 -5.583660818260165
8.39 -5.487109403714979
8.4 -5.385074551500908
